# nongraphitized carbon black (BP 280), Ar, 77 K, data, t
# V(alpha-s=1) = V(P/P0=0.4) = V0.4 = 15.65 [cm3(STP)/g], S(BET) = 36.6 [m2/g]
# S(alpha-s)[m2/g] = slope[cm3(STP)/g] * 36.6/15.65 = slope[cm3(STP)/g] * 2.338658
# [pyGAPS] BET surface area: a = 37 m2/g, The BET constant is: C = 229, Amount for a monolayer: n = 0.00044 mol/g
#   Amount for a monolayer: n = 0.00044 / (1/1000/22.414) = 0.00044 / 4.461e-5 = 9.86325936 [cm3(STP)/g]
# L. Gardner et al., J. Phys. Chem. B 105 (2001).
# P/P0, alpha-s, V[cm3(STP)/g], t[nm]
0.00000966, 0.00654, 0.102351, 0.003486671
0.000011, 0.0131, 0.205015, 0.006984004
0.0000178, 0.0196, 0.30674, 0.010449349
0.0000275, 0.0262, 0.41003, 0.013968007
0.0000394, 0.0327, 0.511755, 0.017433353
0.0000534, 0.0393, 0.615045, 0.020952011
0.0000691, 0.0458, 0.71677, 0.024417356
0.0000866, 0.0524, 0.82006, 0.027936015
0.000106, 0.0589, 0.921785, 0.03140136
0.000127, 0.0654, 1.02351, 0.034866706
0.000149, 0.072, 1.1268, 0.038385364
0.000173, 0.0785, 1.228525, 0.041850709
0.000198, 0.0851, 1.331815, 0.045369368
0.000225, 0.0916, 1.43354, 0.048834713
0.000253, 0.0981, 1.535265, 0.052300058
0.000283, 0.105, 1.64325, 0.055978656
0.000313, 0.111, 1.73715, 0.059177436
0.000345, 0.118, 1.8467, 0.062909346
0.000379, 0.124, 1.9406, 0.066108127
0.000414, 0.131, 2.05015, 0.069840037
0.00045, 0.137, 2.14405, 0.073038817
0.000488, 0.144, 2.2536, 0.076770728
0.000527, 0.15, 2.3475, 0.079969508
0.000566, 0.157, 2.45705, 0.083701419
0.000658, 0.17, 2.6605, 0.090632109
0.00075, 0.183, 2.86395, 0.0975628
0.000851, 0.196, 3.0674, 0.104493491
0.00096, 0.209, 3.27085, 0.111424181
0.00108, 0.222, 3.4743, 0.118354872
0.00121, 0.235, 3.67775, 0.125285563
0.00135, 0.248, 3.8812, 0.132216254
0.0015, 0.261, 4.08465, 0.139146944
0.00167, 0.274, 4.2881, 0.146077635
0.00186, 0.287, 4.49155, 0.153008326
0.00207, 0.3, 4.695, 0.159939016
0.0023, 0.313, 4.89845, 0.166869707
0.00256, 0.326, 5.1019, 0.173800398
0.00285, 0.339, 5.30535, 0.180731088
0.00318, 0.352, 5.5088, 0.187661779
0.00355, 0.365, 5.71225, 0.19459247
0.00397, 0.378, 5.9157, 0.201523161
0.00446, 0.391, 6.11915, 0.208453851
0.00501, 0.403, 6.30695, 0.214851412
0.00565, 0.416, 6.5104, 0.221782103
0.00638, 0.429, 6.71385, 0.228712793
0.00722, 0.441, 6.90165, 0.235110354
0.00821, 0.454, 7.1051, 0.242041045
0.00934, 0.466, 7.2929, 0.248438605
0.0106, 0.478, 7.4807, 0.254836166
0.0109, 0.481, 7.52765, 0.256435556
0.0121, 0.49, 7.6685, 0.261233727
0.0148, 0.508, 7.9502, 0.270830068
0.0168, 0.519, 8.12235, 0.276694498
0.019, 0.53, 8.2945, 0.282558929
0.0243, 0.55, 8.6075, 0.29322153
0.0301, 0.568, 8.8892, 0.302817871
0.0338, 0.578, 9.0457, 0.308149171
0.039, 0.59, 9.2335, 0.314546732
0.0446, 0.601, 9.40565, 0.320411163
0.05, 0.611, 9.56215, 0.325742463
0.0604, 0.627, 9.81255, 0.334272544
0.0701, 0.641, 10.03165, 0.341736365
0.0802, 0.653, 10.21945, 0.348133926
0.0902, 0.665, 10.40725, 0.354531486
0.1, 0.676, 10.5794, 0.360395917
0.119, 0.695, 10.87675, 0.370525388
0.141, 0.716, 11.2054, 0.381721119
0.162, 0.736, 11.5184, 0.39238372
0.182, 0.755, 11.81575, 0.402513191
0.202, 0.774, 12.1131, 0.412642662
0.222, 0.794, 12.4261, 0.423305263
0.243, 0.814, 12.7391, 0.433967864
0.263, 0.835, 13.06775, 0.445163595
0.283, 0.857, 13.41205, 0.456892457
0.303, 0.879, 13.75635, 0.468621318
0.323, 0.903, 14.13195, 0.481416439
0.343, 0.927, 14.50755, 0.494211561
0.361, 0.949, 14.85185, 0.505940422
0.38, 0.974, 15.2431, 0.519268673
0.4, 1, 15.65, 0.533130054
0.42, 1.03, 16.1195, 0.549123956
0.44, 1.05, 16.4325, 0.559786557
0.46, 1.08, 16.902, 0.575780459
0.48, 1.11, 17.3715, 0.59177436
0.5, 1.13, 17.6845, 0.602436962
0.52, 1.16, 18.154, 0.618430863
0.54, 1.18, 18.467, 0.629093464
0.56, 1.21, 18.9365, 0.645087366
0.58, 1.24, 19.406, 0.661081268
0.6, 1.27, 19.8755, 0.677075169
0.62, 1.29, 20.1885, 0.68773777
0.64, 1.32, 20.658, 0.703731672
0.66, 1.35, 21.1275, 0.719725574
0.68, 1.38, 21.597, 0.735719475
0.7, 1.41, 22.0665, 0.751713377
0.72, 1.44, 22.536, 0.767707278
0.739, 1.48, 23.162, 0.789032481
0.76, 1.52, 23.788, 0.810357683
0.78, 1.55, 24.2575, 0.826351584
0.801, 1.6, 25.04, 0.853008087
0.82, 1.64, 25.666, 0.874333289
0.841, 1.69, 26.4485, 0.900989792
0.861, 1.74, 27.231, 0.927646295
0.882, 1.8, 28.17, 0.959634098
0.901, 1.86, 29.109, 0.991621901
0.921, 1.94, 30.361, 1.034272306
0.94, 2.01, 31.4565, 1.07159141
0.958, 2.1, 32.865, 1.119573114
0.972, 2.17, 33.9605, 1.156892218
0.981, 2.22, 34.743, 1.183548721
0.995, 2.27, 35.5255, 1.210205224
